#EXPORTTYPE:                 	DATA COMPARE                              
#FILE:                       	SK_Clear_resin_entalp300kpm_30-300.ngb-sdg
#FORMAT:                     	NETZSCH5                                  
#FTYPE:                      	ASCII                                     
#IDENTITY:                   	Sk_resin                                  
#DECIMAL:                    	POINT                                     
#SEPARATOR:                  	TAB                                       
#MTYPE:                      	DSC                                       
#INSTRUMENT:                 	NETZSCH DSC 214                           
#PROJECT:                    	?ø?†??-Ø                                
#DATE/TIME:                  	16.09.2019 19:53:45 (UTC+3)               
#CORR. FILE:                 	                                          
#TEMPCAL:                    	applied                                   
#SENSITIVITY:                	applied                                   
#LABORATORY:                 	CISIS                                     
#OPERATOR:                   	Nasonov                                   
#REMARK:                     	                                          
#SAMPLE:                     	"R°§0 ISO 160_2                           
#SAMPLE MASS /mg:            	6.79                                      
#MATERIAL:                   	                                          
#REFERENCE:                  	                                          
#REFERENCE MASS /mg:         	7.92                                      
#TYPE OF CRUCIBLE:           	Concavus Pan Al, pierced lid              
#SAMPLE CRUCIBLE MASS /mg:   	0                                         
#REFERENCE CRUCIBLE MASS /mg:	0                                         
#M.RANGE /ßV:                	5000                                      
#TAU-R:                      	---                                       
#CORR. CODE:                 	009                                       
#EXO:                        	+1                                        
#RANGE:                      	20ËC/300.0(K/min)/300ËC                   
#SEGMENT:                    	S1/1                                      
#SEG. 1:                     	20ËC/300.0(K/min)/300ËC                   

##Temp./ËC	DSC/(mW/mg)
 19.98433	 3.615321e-002
 20.08433	 2.386406e-002
 20.18433	 1.824070e-002
 20.28433	 1.394443e-002
 20.38433	 1.025796e-002
 20.48433	 6.497531e-003
 20.58433	 2.435324e-003
 20.68433	-1.962092e-003
 20.78433	-6.887256e-003
 20.88433	-1.215381e-002
 20.98433	-1.772899e-002
 21.08433	-2.372824e-002
 21.18433	-3.021788e-002
 21.28433	-3.715354e-002
 21.38433	-4.441906e-002
 21.48433	-5.201114e-002
 21.58433	-5.997924e-002
 21.68433	-6.836879e-002
 21.78433	-7.712623e-002
 21.88433	-8.615193e-002
 21.98433	-9.541642e-002
 22.08433	      -0.10492
 22.18433	      -0.11471
 22.28433	      -0.12480
 22.38433	      -0.13518
 22.48433	      -0.14580
 22.58433	      -0.15664
 22.68433	      -0.16768
 22.78433	      -0.17891
 22.88433	      -0.19036
 22.98433	      -0.20205
 23.08433	      -0.21400
 23.18433	      -0.22620
 23.28433	      -0.23862
 23.38433	      -0.25124
 23.48433	      -0.26402
 23.58433	      -0.27695
 23.68433	      -0.29003
 23.78433	      -0.30327
 23.88433	      -0.31667
 23.98433	      -0.33022
 24.08433	      -0.34391
 24.18433	      -0.35772
 24.28433	      -0.37167
 24.38433	      -0.38576
 24.48433	      -0.39997
 24.58433	      -0.41429
 24.68433	      -0.42872
 24.78433	      -0.44326
 24.88433	      -0.45793
 24.98433	      -0.47272
 25.08433	      -0.48763
 25.18433	      -0.50266
 25.28433	      -0.51779
 25.38433	      -0.53301
 25.48433	      -0.54831
 25.58433	      -0.56368
 25.68433	      -0.57914
 25.78433	      -0.59470
 25.88433	      -0.61035
 25.98433	      -0.62610
 26.08433	      -0.64191
 26.18433	      -0.65779
 26.28433	      -0.67374
 26.38433	      -0.68975
 26.48433	      -0.70583
 26.58433	      -0.72197
 26.68433	      -0.73817
 26.78433	      -0.75444
 26.88433	      -0.77078
 26.98433	      -0.78720
 27.08433	      -0.80371
 27.18433	      -0.82029
 27.28433	      -0.83692
 27.38433	      -0.85360
 27.48433	      -0.87030
 27.58433	      -0.88703
 27.68433	      -0.90381
 27.78433	      -0.92066
 27.88433	      -0.93758
 27.98433	      -0.95457
 28.08433	      -0.97160
 28.18433	      -0.98868
 28.28433	      -1.00580
 28.38433	      -1.02297
 28.48433	      -1.04018
 28.58433	      -1.05745
 28.68433	      -1.07476
 28.78433	      -1.09212
 28.88433	      -1.10951
 28.98433	      -1.12693
 29.08433	      -1.14437
 29.18433	      -1.16185
 29.28433	      -1.17935
 29.38433	      -1.19687
 29.48433	      -1.21442
 29.58433	      -1.23198
 29.68433	      -1.24957
 29.78433	      -1.26717
 29.88433	      -1.28480
 29.98433	      -1.30247
 30.08433	      -1.32019
 30.18433	      -1.33795
 30.28433	      -1.35576
 30.38433	      -1.37361
 30.48433	      -1.39149
 30.58433	      -1.40940
 30.68433	      -1.42732
 30.78433	      -1.44527
 30.88433	      -1.46324
 30.98433	      -1.48122
 31.08433	      -1.49922
 31.18433	      -1.51724
 31.28433	      -1.53528
 31.38433	      -1.55335
 31.48433	      -1.57145
 31.58433	      -1.58958
 31.68433	      -1.60773
 31.78433	      -1.62591
 31.88433	      -1.64412
 31.98433	      -1.66235
 32.08433	      -1.68060
 32.18433	      -1.69886
 32.28433	      -1.71713
 32.38433	      -1.73540
 32.48433	      -1.75369
 32.58433	      -1.77199
 32.68433	      -1.79031
 32.78433	      -1.80865
 32.88433	      -1.82701
 32.98433	      -1.84538
 33.08433	      -1.86377
 33.18433	      -1.88217
 33.28433	      -1.90058
 33.38433	      -1.91901
 33.48433	      -1.93746
 33.58433	      -1.95592
 33.68433	      -1.97440
 33.78433	      -1.99290
 33.88433	      -2.01141
 33.98433	      -2.02994
 34.08433	      -2.04846
 34.18433	      -2.06700
 34.28433	      -2.08553
 34.38433	      -2.10407
 34.48433	      -2.12260
 34.58433	      -2.14114
 34.68433	      -2.15968
 34.78433	      -2.17823
 34.88433	      -2.19682
 34.98433	      -2.21544
 35.08433	      -2.23410
 35.18433	      -2.25280
 35.28433	      -2.27152
 35.38433	      -2.29027
 35.48433	      -2.30904
 35.58433	      -2.32782
 35.68433	      -2.34661
 35.78433	      -2.36541
 35.88433	      -2.38422
 35.98433	      -2.40304
 36.08433	      -2.42187
 36.18433	      -2.44071
 36.28433	      -2.45955
 36.38433	      -2.47840
 36.48433	      -2.49724
 36.58433	      -2.51609
 36.68433	      -2.53495
 36.78433	      -2.55380
 36.88433	      -2.57267
 36.98433	      -2.59154
 37.08433	      -2.61043
 37.18433	      -2.62932
 37.28433	      -2.64822
 37.38433	      -2.66712
 37.48433	      -2.68603
 37.58433	      -2.70494
 37.68433	      -2.72385
 37.78433	      -2.74277
 37.88433	      -2.76169
 37.98433	      -2.78062
 38.08433	      -2.79956
 38.18433	      -2.81851
 38.28433	      -2.83747
 38.38433	      -2.85644
 38.48433	      -2.87542
 38.58433	      -2.89441
 38.68433	      -2.91341
 38.78433	      -2.93241
 38.88433	      -2.95139
 38.98433	      -2.97034
 39.08433	      -2.98926
 39.18433	      -3.00814
 39.28433	      -3.02700
 39.38433	      -3.04584
 39.48433	      -3.06468
 39.58433	      -3.08352
 39.68433	      -3.10238
 39.78433	      -3.12125
 39.88433	      -3.14013
 39.98433	      -3.15901
 40.08433	      -3.17788
 40.18433	      -3.19675
 40.28433	      -3.21562
 40.38433	      -3.23448
 40.48433	      -3.25334
 40.58433	      -3.27221
 40.68433	      -3.29109
 40.78433	      -3.30999
 40.88433	      -3.32889
 40.98433	      -3.34781
 41.08433	      -3.36675
 41.18433	      -3.38570
 41.28433	      -3.40466
 41.38433	      -3.42364
 41.48433	      -3.44262
 41.58433	      -3.46161
 41.68433	      -3.48060
 41.78433	      -3.49960
 41.88433	      -3.51858
 41.98433	      -3.53757
 42.08433	      -3.55655
 42.18433	      -3.57554
 42.28433	      -3.59453
 42.38433	      -3.61353
 42.48433	      -3.63253
 42.58433	      -3.65154
 42.68433	      -3.67055
 42.78433	      -3.68957
 42.88433	      -3.70859
 42.98433	      -3.72762
 43.08433	      -3.74665
 43.18433	      -3.76569
 43.28433	      -3.78474
 43.38433	      -3.80380
 43.48433	      -3.82287
 43.58433	      -3.84196
 43.68433	      -3.86106
 43.78433	      -3.88017
 43.88433	      -3.89929
 43.98433	      -3.91840
 44.08433	      -3.93751
 44.18433	      -3.95661
 44.28433	      -3.97570
 44.38433	      -3.99479
 44.48433	      -4.01387
 44.58433	      -4.03295
 44.68433	      -4.05202
 44.78433	      -4.07109
 44.88433	      -4.09015
 44.98433	      -4.10922
 45.08433	      -4.12829
 45.18433	      -4.14735
 45.28433	      -4.16642
 45.38433	      -4.18549
 45.48433	      -4.20457
 45.58433	      -4.22364
 45.68433	      -4.24272
 45.78433	      -4.26180
 45.88433	      -4.28087
 45.98433	      -4.29995
 46.08433	      -4.31902
 46.18433	      -4.33809
 46.28433	      -4.35717
 46.38433	      -4.37625
 46.48433	      -4.39533
 46.58433	      -4.41441
 46.68433	      -4.43350
 46.78433	      -4.45259
 46.88433	      -4.47169
 46.98433	      -4.49079
 47.08433	      -4.50990
 47.18433	      -4.52901
 47.28433	      -4.54813
 47.38433	      -4.56725
 47.48433	      -4.58636
 47.58433	      -4.60546
 47.68433	      -4.62454
 47.78433	      -4.64362
 47.88433	      -4.66268
 47.98433	      -4.68173
 48.08433	      -4.70078
 48.18433	      -4.71981
 48.28433	      -4.73885
 48.38433	      -4.75788
 48.48433	      -4.77691
 48.58433	      -4.79593
 48.68433	      -4.81496
 48.78433	      -4.83398
 48.88433	      -4.85300
 48.98433	      -4.87201
 49.08433	      -4.89102
 49.18433	      -4.91004
 49.28433	      -4.92905
 49.38433	      -4.94806
 49.48433	      -4.96706
 49.58433	      -4.98607
 49.68433	      -5.00507
 49.78433	      -5.02406
 49.88433	      -5.04304
 49.98433	      -5.06200
 50.08433	      -5.08093
 50.18433	      -5.09984
 50.28433	      -5.11873
 50.38433	      -5.13759
 50.48433	      -5.15643
 50.58433	      -5.17526
 50.68433	      -5.19407
 50.78433	      -5.21288
 50.88433	      -5.23168
 50.98433	      -5.25047
 51.08433	      -5.26925
 51.18433	      -5.28804
 51.28433	      -5.30681
 51.38433	      -5.32559
 51.48433	      -5.34435
 51.58433	      -5.36311
 51.68433	      -5.38185
 51.78433	      -5.40057
 51.88433	      -5.41925
 51.98433	      -5.43790
 52.08433	      -5.45651
 52.18433	      -5.47506
 52.28433	      -5.49354
 52.38433	      -5.51194
 52.48433	      -5.53024
 52.58433	      -5.54842
 52.68433	      -5.56647
 52.78433	      -5.58439
 52.88433	      -5.60218
 52.98433	      -5.61986
 53.08433	      -5.63742
 53.18433	      -5.65489
 53.28433	      -5.67228
 53.38433	      -5.68959
 53.48433	      -5.70683
 53.58433	      -5.72402
 53.68433	      -5.74117
 53.78433	      -5.75830
 53.88433	      -5.77541
 53.98433	      -5.79252
 54.08433	      -5.80963
 54.18433	      -5.82675
 54.28433	      -5.84388
 54.38433	      -5.86103
 54.48433	      -5.87818
 54.58433	      -5.89536
 54.68433	      -5.91255
 54.78433	      -5.92975
 54.88433	      -5.94698
 54.98433	      -5.96422
 55.08433	      -5.98148
 55.18433	      -5.99876
 55.28433	      -6.01606
 55.38433	      -6.03338
 55.48433	      -6.05072
 55.58433	      -6.06807
 55.68433	      -6.08545
 55.78433	      -6.10285
 55.88433	      -6.12027
 55.98433	      -6.13771
 56.08433	      -6.15518
 56.18433	      -6.17266
 56.28433	      -6.19017
 56.38433	      -6.20770
 56.48433	      -6.22525
 56.58433	      -6.24283
 56.68433	      -6.26042
 56.78433	      -6.27803
 56.88433	      -6.29565
 56.98433	      -6.31328
 57.08433	      -6.33093
 57.18433	      -6.34858
 57.28433	      -6.36624
 57.38433	      -6.38389
 57.48433	      -6.40156
 57.58433	      -6.41922
 57.68433	      -6.43689
 57.78433	      -6.45457
 57.88433	      -6.47224
 57.98433	      -6.48993
 58.08433	      -6.50762
 58.18433	      -6.52531
 58.28433	      -6.54301
 58.38433	      -6.56072
 58.48433	      -6.57844
 58.58433	      -6.59616
 58.68433	      -6.61390
 58.78433	      -6.63165
 58.88433	      -6.64940
 58.98433	      -6.66717
 59.08433	      -6.68494
 59.18433	      -6.70272
 59.28433	      -6.72051
 59.38433	      -6.73830
 59.48433	      -6.75610
 59.58433	      -6.77390
 59.68433	      -6.79170
 59.78433	      -6.80950
 59.88433	      -6.82729
 59.98433	      -6.84507
 60.08433	      -6.86284
 60.18433	      -6.88060
 60.28433	      -6.89836
 60.38433	      -6.91610
 60.48433	      -6.93384
 60.58433	      -6.95157
 60.68433	      -6.96930
 60.78433	      -6.98702
 60.88433	      -7.00473
 60.98433	      -7.02244
 61.08433	      -7.04014
 61.18433	      -7.05783
 61.28433	      -7.07552
 61.38433	      -7.09320
 61.48433	      -7.11087
 61.58433	      -7.12854
 61.68433	      -7.14620
 61.78433	      -7.16386
 61.88433	      -7.18151
 61.98433	      -7.19916
 62.08433	      -7.21680
 62.18433	      -7.23444
 62.28433	      -7.25207
 62.38433	      -7.26969
 62.48433	      -7.28730
 62.58433	      -7.30491
 62.68433	      -7.32250
 62.78433	      -7.34009
 62.88433	      -7.35766
 62.98433	      -7.37523
 63.08433	      -7.39278
 63.18433	      -7.41033
 63.28433	      -7.42787
 63.38433	      -7.44540
 63.48433	      -7.46293
 63.58433	      -7.48045
 63.68433	      -7.49796
 63.78433	      -7.51547
 63.88433	      -7.53296
 63.98433	      -7.55045
 64.08433	      -7.56794
 64.18433	      -7.58541
 64.28433	      -7.60288
 64.38433	      -7.62034
 64.48433	      -7.63780
 64.58433	      -7.65524
 64.68433	      -7.67269
 64.78433	      -7.69013
 64.88433	      -7.70756
 64.98433	      -7.72499
 65.08433	      -7.74241
 65.18433	      -7.75982
 65.28433	      -7.77723
 65.38433	      -7.79463
 65.48433	      -7.81203
 65.58433	      -7.82941
 65.68433	      -7.84679
 65.78433	      -7.86416
 65.88433	      -7.88151
 65.98433	      -7.89885
 66.08433	      -7.91618
 66.18433	      -7.93349
 66.28433	      -7.95079
 66.38433	      -7.96807
 66.48433	      -7.98535
 66.58433	      -8.00261
 66.68433	      -8.01986
 66.78433	      -8.03711
 66.88433	      -8.05436
 66.98433	      -8.07160
 67.08433	      -8.08884
 67.18433	      -8.10607
 67.28433	      -8.12330
 67.38433	      -8.14051
 67.48433	      -8.15770
 67.58433	      -8.17488
 67.68433	      -8.19205
 67.78433	      -8.20920
 67.88433	      -8.22633
 67.98433	      -8.24346
 68.08433	      -8.26058
 68.18433	      -8.27769
 68.28433	      -8.29481
 68.38433	      -8.31192
 68.48433	      -8.32904
 68.58433	      -8.34614
 68.68433	      -8.36323
 68.78433	      -8.38030
 68.88433	      -8.39736
 68.98433	      -8.41438
 69.08433	      -8.43138
 69.18433	      -8.44835
 69.28433	      -8.46530
 69.38433	      -8.48224
 69.48433	      -8.49916
 69.58433	      -8.51606
 69.68433	      -8.53297
 69.78433	      -8.54987
 69.88433	      -8.56677
 69.98433	      -8.58366
 70.08433	      -8.60056
 70.18433	      -8.61745
 70.28433	      -8.63433
 70.38433	      -8.65122
 70.48433	      -8.66809
 70.58433	      -8.68497
 70.68433	      -8.70184
 70.78433	      -8.71871
 70.88433	      -8.73557
 70.98433	      -8.75243
 71.08433	      -8.76929
 71.18433	      -8.78615
 71.28433	      -8.80300
 71.38433	      -8.81985
 71.48433	      -8.83670
 71.58433	      -8.85354
 71.68433	      -8.87037
 71.78433	      -8.88719
 71.88433	      -8.90400
 71.98433	      -8.92080
 72.08433	      -8.93758
 72.18433	      -8.95436
 72.28433	      -8.97112
 72.38433	      -8.98788
 72.48433	      -9.00462
 72.58433	      -9.02136
 72.68433	      -9.03808
 72.78433	      -9.05479
 72.88433	      -9.07150
 72.98433	      -9.08818
 73.08433	      -9.10485
 73.18433	      -9.12150
 73.28433	      -9.13814
 73.38433	      -9.15475
 73.48433	      -9.17135
 73.58433	      -9.18793
 73.68433	      -9.20450
 73.78433	      -9.22105
 73.88433	      -9.23760
 73.98433	      -9.25415
 74.08433	      -9.27069
 74.18433	      -9.28722
 74.28433	      -9.30375
 74.38433	      -9.32026
 74.48433	      -9.33675
 74.58433	      -9.35322
 74.68433	      -9.36967
 74.78433	      -9.38609
 74.88433	      -9.40248
 74.98433	      -9.41884
 75.08433	      -9.43519
 75.18433	      -9.45151
 75.28433	      -9.46782
 75.38433	      -9.48411
 75.48433	      -9.50039
 75.58433	      -9.51665
 75.68433	      -9.53290
 75.78433	      -9.54914
 75.88433	      -9.56536
 75.98433	      -9.58156
 76.08433	      -9.59774
 76.18433	      -9.61390
 76.28433	      -9.63003
 76.38433	      -9.64615
 76.48433	      -9.66224
 76.58433	      -9.67832
 76.68433	      -9.69438
 76.78433	      -9.71044
 76.88433	      -9.72648
 76.98433	      -9.74251
 77.08433	      -9.75854
 77.18433	      -9.77456
 77.28433	      -9.79056
 77.38433	      -9.80655
 77.48433	      -9.82252
 77.58433	      -9.83847
 77.68433	      -9.85440
 77.78433	      -9.87032
 77.88433	      -9.88622
 77.98433	      -9.90210
 78.08433	      -9.91798
 78.18433	      -9.93384
 78.28433	      -9.94969
 78.38433	      -9.96554
 78.48433	      -9.98138
 78.58433	      -9.99721
 78.68433	     -10.01302
 78.78433	     -10.02882
 78.88433	     -10.04459
 78.98433	     -10.06034
 79.08433	     -10.07607
 79.18433	     -10.09176
 79.28433	     -10.10743
 79.38433	     -10.12308
 79.48433	     -10.13871
 79.58433	     -10.15432
 79.68433	     -10.16992
 79.78433	     -10.18551
 79.88433	     -10.20109
 79.98433	     -10.21667
 80.08433	     -10.23224
 80.18433	     -10.24780
 80.28433	     -10.26335
 80.38433	     -10.27889
 80.48433	     -10.29441
 80.58433	     -10.30992
 80.68433	     -10.32542
 80.78433	     -10.34090
 80.88433	     -10.35636
 80.98433	     -10.37181
 81.08433	     -10.38724
 81.18433	     -10.40265
 81.28433	     -10.41805
 81.38433	     -10.43343
 81.48433	     -10.44879
 81.58433	     -10.46413
 81.68433	     -10.47946
 81.78433	     -10.49476
 81.88433	     -10.51004
 81.98433	     -10.52531
 82.08433	     -10.54055
 82.18433	     -10.55578
 82.28433	     -10.57098
 82.38433	     -10.58618
 82.48433	     -10.60135
 82.58433	     -10.61652
 82.68433	     -10.63167
 82.78433	     -10.64681
 82.88433	     -10.66193
 82.98433	     -10.67705
 83.08433	     -10.69215
 83.18433	     -10.70724
 83.28433	     -10.72232
 83.38433	     -10.73739
 83.48433	     -10.75243
 83.58433	     -10.76747
 83.68433	     -10.78249
 83.78433	     -10.79749
 83.88433	     -10.81249
 83.98433	     -10.82747
 84.08433	     -10.84244
 84.18433	     -10.85739
 84.28433	     -10.87234
 84.38433	     -10.88727
 84.48433	     -10.90220
 84.58433	     -10.91711
 84.68433	     -10.93200
 84.78433	     -10.94689
 84.88433	     -10.96176
 84.98433	     -10.97662
 85.08433	     -10.99146
 85.18433	     -11.00629
 85.28433	     -11.02110
 85.38433	     -11.03591
 85.48433	     -11.05069
 85.58433	     -11.06547
 85.68433	     -11.08023
 85.78433	     -11.09498
 85.88433	     -11.10971
 85.98433	     -11.12443
 86.08433	     -11.13913
 86.18433	     -11.15382
 86.28433	     -11.16849
 86.38433	     -11.18314
 86.48433	     -11.19778
 86.58433	     -11.21241
 86.68433	     -11.22702
 86.78433	     -11.24161
 86.88433	     -11.25620
 86.98433	     -11.27077
 87.08433	     -11.28534
 87.18433	     -11.29990
 87.28433	     -11.31445
 87.38433	     -11.32898
 87.48433	     -11.34351
 87.58433	     -11.35801
 87.68433	     -11.37251
 87.78433	     -11.38698
 87.88433	     -11.40143
 87.98433	     -11.41586
 88.08433	     -11.43028
 88.18433	     -11.44467
 88.28433	     -11.45904
 88.38433	     -11.47339
 88.48433	     -11.48772
 88.58433	     -11.50203
 88.68433	     -11.51632
 88.78433	     -11.53060
 88.88433	     -11.54486
 88.98433	     -11.55910
 89.08433	     -11.57333
 89.18433	     -11.58755
 89.28433	     -11.60176
 89.38433	     -11.61596
 89.48433	     -11.63016
 89.58433	     -11.64434
 89.68433	     -11.65851
 89.78433	     -11.67267
 89.88433	     -11.68681
 89.98433	     -11.70094
 90.08433	     -11.71506
 90.18433	     -11.72916
 90.28433	     -11.74325
 90.38433	     -11.75732
 90.48433	     -11.77138
 90.58433	     -11.78541
 90.68433	     -11.79944
 90.78433	     -11.81344
 90.88433	     -11.82742
 90.98433	     -11.84139
 91.08433	     -11.85534
 91.18433	     -11.86928
 91.28433	     -11.88320
 91.38433	     -11.89710
 91.48433	     -11.91099
 91.58433	     -11.92486
 91.68433	     -11.93872
 91.78433	     -11.95256
 91.88433	     -11.96638
 91.98433	     -11.98019
 92.08433	     -11.99397
 92.18433	     -12.00773
 92.28433	     -12.02147
 92.38433	     -12.03518
 92.48433	     -12.04888
 92.58433	     -12.06256
 92.68433	     -12.07623
 92.78433	     -12.08988
 92.88433	     -12.10353
 92.98433	     -12.11716
 93.08433	     -12.13079
 93.18433	     -12.14440
 93.28433	     -12.15801
 93.38433	     -12.17160
 93.48433	     -12.18518
 93.58433	     -12.19874
 93.68433	     -12.21229
 93.78433	     -12.22582
 93.88433	     -12.23933
 93.98433	     -12.25283
 94.08433	     -12.26630
 94.18433	     -12.27976
 94.28433	     -12.29319
 94.38433	     -12.30661
 94.48433	     -12.32001
 94.58433	     -12.33339
 94.68433	     -12.34675
 94.78433	     -12.36009
 94.88433	     -12.37342
 94.98433	     -12.38673
 95.08433	     -12.40003
 95.18433	     -12.41332
 95.28433	     -12.42660
 95.38433	     -12.43987
 95.48433	     -12.45312
 95.58433	     -12.46635
 95.68433	     -12.47957
 95.78433	     -12.49278
 95.88433	     -12.50597
 95.98433	     -12.51913
 96.08433	     -12.53229
 96.18433	     -12.54542
 96.28433	     -12.55853
 96.38433	     -12.57163
 96.48433	     -12.58471
 96.58433	     -12.59776
 96.68433	     -12.61080
 96.78433	     -12.62381
 96.88433	     -12.63681
 96.98433	     -12.64979
 97.08433	     -12.66275
 97.18433	     -12.67570
 97.28433	     -12.68863
 97.38433	     -12.70154
 97.48433	     -12.71444
 97.58433	     -12.72733
 97.68433	     -12.74021
 97.78433	     -12.75308
 97.88433	     -12.76595
 97.98433	     -12.77881
 98.08433	     -12.79167
 98.18433	     -12.80452
 98.28433	     -12.81737
 98.38433	     -12.83022
 98.48433	     -12.84305
 98.58433	     -12.85587
 98.68433	     -12.86867
 98.78433	     -12.88146
 98.88433	     -12.89423
 98.98433	     -12.90697
 99.08433	     -12.91970
 99.18433	     -12.93242
 99.28433	     -12.94512
 99.38433	     -12.95781
 99.48433	     -12.97050
 99.58433	     -12.98317
 99.68433	     -12.99584
 99.78433	     -13.00850
 99.88433	     -13.02114
 99.98433	     -13.03378
100.08433	     -13.04640
100.18433	     -13.05901
100.28433	     -13.07160
100.38433	     -13.08418
100.48433	     -13.09674
100.58433	     -13.10930
100.68433	     -13.12184
100.78433	     -13.13438
100.88433	     -13.14691
100.98433	     -13.15943
101.08433	     -13.17195
101.18433	     -13.18447
101.28433	     -13.19697
101.38433	     -13.20946
101.48433	     -13.22193
101.58433	     -13.23439
101.68433	     -13.24682
101.78433	     -13.25924
101.88433	     -13.27163
101.98433	     -13.28400
102.08433	     -13.29635
102.18433	     -13.30868
102.28433	     -13.32098
102.38433	     -13.33327
102.48433	     -13.34553
102.58433	     -13.35777
102.68433	     -13.36999
102.78433	     -13.38219
102.88433	     -13.39437
102.98433	     -13.40653
103.08433	     -13.41867
103.18433	     -13.43079
103.28433	     -13.44289
103.38433	     -13.45497
103.48433	     -13.46704
103.58433	     -13.47908
103.68433	     -13.49111
103.78433	     -13.50312
103.88433	     -13.51512
103.98433	     -13.52710
104.08433	     -13.53906
104.18433	     -13.55100
104.28433	     -13.56293
104.38433	     -13.57485
104.48433	     -13.58675
104.58433	     -13.59863
104.68433	     -13.61049
104.78433	     -13.62234
104.88433	     -13.63417
104.98433	     -13.64598
105.08433	     -13.65777
105.18433	     -13.66953
105.28433	     -13.68127
105.38433	     -13.69298
105.48433	     -13.70468
105.58433	     -13.71635
105.68433	     -13.72801
105.78433	     -13.73965
105.88433	     -13.75127
105.98433	     -13.76289
106.08433	     -13.77449
106.18433	     -13.78608
106.28433	     -13.79766
106.38433	     -13.80922
106.48433	     -13.82076
106.58433	     -13.83227
106.68433	     -13.84376
106.78433	     -13.85523
106.88433	     -13.86667
106.98433	     -13.87808
107.08433	     -13.88947
107.18433	     -13.90083
107.28433	     -13.91217
107.38433	     -13.92347
107.48433	     -13.93476
107.58433	     -13.94602
107.68433	     -13.95725
107.78433	     -13.96846
107.88433	     -13.97965
107.98433	     -13.99081
108.08433	     -14.00195
108.18433	     -14.01307
108.28433	     -14.02416
108.38433	     -14.03523
108.48433	     -14.04627
108.58433	     -14.05729
108.68433	     -14.06828
108.78433	     -14.07924
108.88433	     -14.09016
108.98433	     -14.10106
109.08433	     -14.11193
109.18433	     -14.12277
109.28433	     -14.13359
109.38433	     -14.14438
109.48433	     -14.15515
109.58433	     -14.16590
109.68433	     -14.17663
109.78433	     -14.18733
109.88433	     -14.19801
109.98433	     -14.20867
110.08433	     -14.21931
110.18433	     -14.22991
110.28433	     -14.24049
110.38433	     -14.25104
110.48433	     -14.26157
110.58433	     -14.27207
110.68433	     -14.28254
110.78433	     -14.29299
110.88433	     -14.30340
110.98433	     -14.31380
111.08433	     -14.32417
111.18433	     -14.33451
111.28433	     -14.34483
111.38433	     -14.35512
111.48433	     -14.36540
111.58433	     -14.37565
111.68433	     -14.38588
111.78433	     -14.39609
111.88433	     -14.40628
111.98433	     -14.41645
112.08433	     -14.42659
112.18433	     -14.43672
112.28433	     -14.44683
112.38433	     -14.45692
112.48433	     -14.46700
112.58433	     -14.47705
112.68433	     -14.48708
112.78433	     -14.49708
112.88433	     -14.50706
112.98433	     -14.51701
113.08433	     -14.52694
113.18433	     -14.53683
113.28433	     -14.54670
113.38433	     -14.55654
113.48433	     -14.56634
113.58433	     -14.57611
113.68433	     -14.58585
113.78433	     -14.59555
113.88433	     -14.60522
113.98433	     -14.61485
114.08433	     -14.62445
114.18433	     -14.63403
114.28433	     -14.64357
114.38433	     -14.65309
114.48433	     -14.66259
114.58433	     -14.67206
114.68433	     -14.68150
114.78433	     -14.69092
114.88433	     -14.70032
114.98433	     -14.70969
115.08433	     -14.71903
115.18433	     -14.72835
115.28433	     -14.73765
115.38433	     -14.74691
115.48433	     -14.75615
115.58433	     -14.76535
115.68433	     -14.77451
115.78433	     -14.78364
115.88433	     -14.79273
115.98433	     -14.80179
116.08433	     -14.81080
116.18433	     -14.81978
116.28433	     -14.82872
116.38433	     -14.83762
116.48433	     -14.84649
116.58433	     -14.85532
116.68433	     -14.86412
116.78433	     -14.87288
116.88433	     -14.88161
116.98433	     -14.89031
117.08433	     -14.89898
117.18433	     -14.90761
117.28433	     -14.91622
117.38433	     -14.92479
117.48433	     -14.93332
117.58433	     -14.94182
117.68433	     -14.95029
117.78433	     -14.95871
117.88433	     -14.96709
117.98433	     -14.97543
118.08433	     -14.98373
118.18433	     -14.99199
118.28433	     -15.00021
118.38433	     -15.00839
118.48433	     -15.01654
118.58433	     -15.02465
118.68433	     -15.03273
118.78433	     -15.04078
118.88433	     -15.04879
118.98433	     -15.05676
119.08433	     -15.06470
119.18433	     -15.07260
119.28433	     -15.08047
119.38433	     -15.08829
119.48433	     -15.09608
119.58433	     -15.10382
119.68433	     -15.11152
119.78433	     -15.11918
119.88433	     -15.12678
119.98433	     -15.13434
120.08433	     -15.14185
120.18433	     -15.14931
120.28433	     -15.15672
120.38433	     -15.16409
120.48433	     -15.17141
120.58433	     -15.17870
120.68433	     -15.18594
120.78433	     -15.19315
120.88433	     -15.20031
120.98433	     -15.20744
121.08433	     -15.21452
121.18433	     -15.22156
121.28433	     -15.22856
121.38433	     -15.23552
121.48433	     -15.24243
121.58433	     -15.24930
121.68433	     -15.25613
121.78433	     -15.26292
121.88433	     -15.26967
121.98433	     -15.27638
122.08433	     -15.28305
122.18433	     -15.28967
122.28433	     -15.29625
122.38433	     -15.30279
122.48433	     -15.30928
122.58433	     -15.31572
122.68433	     -15.32211
122.78433	     -15.32845
122.88433	     -15.33474
122.98433	     -15.34097
123.08433	     -15.34716
123.18433	     -15.35329
123.28433	     -15.35937
123.38433	     -15.36540
123.48433	     -15.37137
123.58433	     -15.37729
123.68433	     -15.38316
123.78433	     -15.38897
123.88433	     -15.39474
123.98433	     -15.40045
124.08433	     -15.40610
124.18433	     -15.41171
124.28433	     -15.41726
124.38433	     -15.42276
124.48433	     -15.42821
124.58433	     -15.43360
124.68433	     -15.43893
124.78433	     -15.44421
124.88433	     -15.44944
124.98433	     -15.45462
125.08433	     -15.45974
125.18433	     -15.46482
125.28433	     -15.46985
125.38433	     -15.47483
125.48433	     -15.47976
125.58433	     -15.48464
125.68433	     -15.48946
125.78433	     -15.49421
125.88433	     -15.49889
125.98433	     -15.50350
126.08433	     -15.50803
126.18433	     -15.51247
126.28433	     -15.51685
126.38433	     -15.52115
126.48433	     -15.52539
126.58433	     -15.52956
126.68433	     -15.53367
126.78433	     -15.53772
126.88433	     -15.54172
126.98433	     -15.54566
127.08433	     -15.54954
127.18433	     -15.55336
127.28433	     -15.55713
127.38433	     -15.56084
127.48433	     -15.56449
127.58433	     -15.56808
127.68433	     -15.57160
127.78433	     -15.57506
127.88433	     -15.57845
127.98433	     -15.58176
128.08433	     -15.58501
128.18433	     -15.58817
128.28433	     -15.59126
128.38433	     -15.59428
128.48433	     -15.59723
128.58433	     -15.60010
128.68433	     -15.60290
128.78433	     -15.60564
128.88433	     -15.60830
128.98433	     -15.61089
129.08433	     -15.61341
129.18433	     -15.61586
129.28433	     -15.61825
129.38433	     -15.62057
129.48433	     -15.62282
129.58433	     -15.62501
129.68433	     -15.62713
129.78433	     -15.62919
129.88433	     -15.63118
129.98433	     -15.63311
130.08433	     -15.63498
130.18433	     -15.63679
130.28433	     -15.63852
130.38433	     -15.64018
130.48433	     -15.64177
130.58433	     -15.64327
130.68433	     -15.64470
130.78433	     -15.64605
130.88433	     -15.64732
130.98433	     -15.64851
131.08433	     -15.64962
131.18433	     -15.65064
131.28433	     -15.65159
131.38433	     -15.65245
131.48433	     -15.65323
131.58433	     -15.65394
131.68433	     -15.65457
131.78433	     -15.65512
131.88433	     -15.65560
131.98433	     -15.65600
132.08433	     -15.65632
132.18433	     -15.65657
132.28433	     -15.65674
132.38433	     -15.65684
132.48433	     -15.65685
132.58433	     -15.65677
132.68433	     -15.65662
132.78433	     -15.65638
132.88433	     -15.65606
132.98433	     -15.65565
133.08433	     -15.65515
133.18433	     -15.65457
133.28433	     -15.65390
133.38433	     -15.65314
133.48433	     -15.65230
133.58433	     -15.65136
133.68433	     -15.65034
133.78433	     -15.64923
133.88433	     -15.64802
133.98433	     -15.64673
134.08433	     -15.64535
134.18433	     -15.64389
134.28433	     -15.64233
134.38433	     -15.64069
134.48433	     -15.63897
134.58433	     -15.63716
134.68433	     -15.63527
134.78433	     -15.63331
134.88433	     -15.63127
134.98433	     -15.62916
135.08433	     -15.62699
135.18433	     -15.62474
135.28433	     -15.62243
135.38433	     -15.62003
135.48433	     -15.61756
135.58433	     -15.61499
135.68433	     -15.61234
135.78433	     -15.60959
135.88433	     -15.60674
135.98433	     -15.60379
136.08433	     -15.60074
136.18433	     -15.59760
136.28433	     -15.59435
136.38433	     -15.59099
136.48433	     -15.58754
136.58433	     -15.58398
136.68433	     -15.58031
136.78433	     -15.57654
136.88433	     -15.57267
136.98433	     -15.56868
137.08433	     -15.56459
137.18433	     -15.56038
137.28433	     -15.55607
137.38433	     -15.55165
137.48433	     -15.54711
137.58433	     -15.54246
137.68433	     -15.53770
137.78433	     -15.53282
137.88433	     -15.52784
137.98433	     -15.52274
138.08433	     -15.51753
138.18433	     -15.51222
138.28433	     -15.50680
138.38433	     -15.50127
138.48433	     -15.49562
138.58433	     -15.48985
138.68433	     -15.48395
138.78433	     -15.47793
138.88433	     -15.47178
138.98433	     -15.46550
139.08433	     -15.45908
139.18433	     -15.45253
139.28433	     -15.44586
139.38433	     -15.43906
139.48433	     -15.43213
139.58433	     -15.42508
139.68433	     -15.41789
139.78433	     -15.41057
139.88433	     -15.40312
139.98433	     -15.39553
140.08433	     -15.38780
140.18433	     -15.37993
140.28433	     -15.37192
140.38433	     -15.36378
140.48433	     -15.35550
140.58433	     -15.34709
140.68433	     -15.33854
140.78433	     -15.32987
140.88433	     -15.32107
140.98433	     -15.31213
141.08433	     -15.30306
141.18433	     -15.29385
141.28433	     -15.28451
141.38433	     -15.27503
141.48433	     -15.26542
141.58433	     -15.25565
141.68433	     -15.24574
141.78433	     -15.23568
141.88433	     -15.22547
141.98433	     -15.21511
142.08433	     -15.20459
142.18433	     -15.19391
142.28433	     -15.18309
142.38433	     -15.17211
142.48433	     -15.16099
142.58433	     -15.14971
142.68433	     -15.13829
142.78433	     -15.12670
142.88433	     -15.11495
142.98433	     -15.10303
143.08433	     -15.09095
143.18433	     -15.07869
143.28433	     -15.06625
143.38433	     -15.05365
143.48433	     -15.04087
143.58433	     -15.02793
143.68433	     -15.01483
143.78433	     -15.00157
143.88433	     -14.98814
143.98433	     -14.97455
144.08433	     -14.96079
144.18433	     -14.94686
144.28433	     -14.93276
144.38433	     -14.91848
144.48433	     -14.90402
144.58433	     -14.88939
144.68433	     -14.87458
144.78433	     -14.85959
144.88433	     -14.84442
144.98433	     -14.82907
145.08433	     -14.81354
145.18433	     -14.79783
145.28433	     -14.78192
145.38433	     -14.76583
145.48433	     -14.74955
145.58433	     -14.73307
145.68433	     -14.71639
145.78433	     -14.69952
145.88433	     -14.68246
145.98433	     -14.66519
146.08433	     -14.64773
146.18433	     -14.63006
146.28433	     -14.61219
146.38433	     -14.59412
146.48433	     -14.57583
146.58433	     -14.55732
146.68433	     -14.53860
146.78433	     -14.51965
146.88433	     -14.50047
146.98433	     -14.48106
147.08433	     -14.46141
147.18433	     -14.44152
147.28433	     -14.42138
147.38433	     -14.40099
147.48433	     -14.38034
147.58433	     -14.35944
147.68433	     -14.33830
147.78433	     -14.31690
147.88433	     -14.29525
147.98433	     -14.27335
148.08433	     -14.25119
148.18433	     -14.22877
148.28433	     -14.20609
148.38433	     -14.18313
148.48433	     -14.15990
148.58433	     -14.13638
148.68433	     -14.11259
148.78433	     -14.08850
148.88433	     -14.06411
148.98433	     -14.03943
149.08433	     -14.01444
149.18433	     -13.98914
149.28433	     -13.96353
149.38433	     -13.93761
149.48433	     -13.91138
149.58433	     -13.88483
149.68433	     -13.85797
149.78433	     -13.83078
149.88433	     -13.80327
149.98433	     -13.77542
150.08433	     -13.74724
150.18433	     -13.71871
150.28433	     -13.68982
150.38433	     -13.66059
150.48433	     -13.63099
150.58433	     -13.60104
150.68433	     -13.57072
150.78433	     -13.54004
150.88433	     -13.50899
150.98433	     -13.47756
151.08433	     -13.44574
151.18433	     -13.41353
151.28433	     -13.38092
151.38433	     -13.34790
151.48433	     -13.31446
151.58433	     -13.28060
151.68433	     -13.24631
151.78433	     -13.21160
151.88433	     -13.17647
151.98433	     -13.14090
152.08433	     -13.10490
152.18433	     -13.06847
152.28433	     -13.03159
152.38433	     -12.99427
152.48433	     -12.95650
152.58433	     -12.91828
152.68433	     -12.87959
152.78433	     -12.84042
152.88433	     -12.80077
152.98433	     -12.76061
153.08433	     -12.71994
153.18433	     -12.67874
153.28433	     -12.63702
153.38433	     -12.59476
153.48433	     -12.55197
153.58433	     -12.50864
153.68433	     -12.46476
153.78433	     -12.42034
153.88433	     -12.37537
153.98433	     -12.32983
154.08433	     -12.28373
154.18433	     -12.23706
154.28433	     -12.18981
154.38433	     -12.14198
154.48433	     -12.09355
154.58433	     -12.04451
154.68433	     -11.99487
154.78433	     -11.94460
154.88433	     -11.89370
154.98433	     -11.84216
155.08433	     -11.78996
155.18433	     -11.73711
155.28433	     -11.68358
155.38433	     -11.62937
155.48433	     -11.57448
155.58433	     -11.51888
155.68433	     -11.46259
155.78433	     -11.40559
155.88433	     -11.34787
155.98433	     -11.28944
156.08433	     -11.23027
156.18433	     -11.17037
156.28433	     -11.10972
156.38433	     -11.04832
156.48433	     -10.98615
156.58433	     -10.92321
156.68433	     -10.85950
156.78433	     -10.79502
156.88433	     -10.72976
156.98433	     -10.66372
157.08433	     -10.59690
157.18433	     -10.52929
157.28433	     -10.46087
157.38433	     -10.39164
157.48433	     -10.32159
157.58433	     -10.25071
157.68433	     -10.17899
157.78433	     -10.10641
157.88433	     -10.03299
157.98433	      -9.95869
158.08433	      -9.88353
158.18433	      -9.80748
158.28433	      -9.73056
158.38433	      -9.65275
158.48433	      -9.57405
158.58433	      -9.49448
158.68433	      -9.41401
158.78433	      -9.33266
158.88433	      -9.25041
158.98433	      -9.16726
159.08433	      -9.08320
159.18433	      -8.99824
159.28433	      -8.91235
159.38433	      -8.82555
159.48433	      -8.73782
159.58433	      -8.64919
159.68433	      -8.55963
159.78433	      -8.46917
159.88433	      -8.37779
159.98433	      -8.28550
160.08433	      -8.19231
160.18433	      -8.09822
160.28433	      -8.00323
160.38433	      -7.90735
160.48433	      -7.81058
160.58433	      -7.71292
160.68433	      -7.61437
160.78433	      -7.51494
160.88433	      -7.41463
160.98433	      -7.31345
161.08433	      -7.21141
161.18433	      -7.10851
161.28433	      -7.00478
161.38433	      -6.90023
161.48433	      -6.79486
161.58433	      -6.68869
161.68433	      -6.58174
161.78433	      -6.47401
161.88433	      -6.36552
161.98433	      -6.25628
162.08433	      -6.14631
162.18433	      -6.03564
162.28433	      -5.92428
162.38433	      -5.81225
162.48433	      -5.69960
162.58433	      -5.58632
162.68433	      -5.47245
162.78433	      -5.35801
162.88433	      -5.24300
162.98433	      -5.12744
163.08433	      -5.01136
163.18433	      -4.89478
163.28433	      -4.77773
163.38433	      -4.66024
163.48433	      -4.54236
163.58433	      -4.42411
163.68433	      -4.30551
163.78433	      -4.18662
163.88433	      -4.06744
163.98433	      -3.94802
164.08433	      -3.82839
164.18433	      -3.70857
164.28433	      -3.58860
164.38433	      -3.46851
164.48433	      -3.34832
164.58433	      -3.22807
164.68433	      -3.10780
164.78433	      -2.98752
164.88433	      -2.86729
164.98433	      -2.74712
165.08433	      -2.62707
165.18433	      -2.50715
165.28433	      -2.38740
165.38433	      -2.26786
165.48433	      -2.14855
165.58433	      -2.02952
165.68433	      -1.91079
165.78433	      -1.79239
165.88433	      -1.67435
165.98433	      -1.55669
166.08433	      -1.43944
166.18433	      -1.32263
166.28433	      -1.20627
166.38433	      -1.09038
166.48433	      -0.97498
166.58433	      -0.86009
166.68433	      -0.74572
166.78433	      -0.63188
166.88433	      -0.51860
166.98433	      -0.40588
167.08433	      -0.29374
167.18433	      -0.18220
167.28433	-7.126497e-002
167.38433	 3.904596e-002
167.48433	       0.14873
167.58433	       0.25778
167.68433	       0.36620
167.78433	       0.47397
167.88433	       0.58110
167.98433	       0.68759
168.08433	       0.79344
168.18433	       0.89865
168.28433	       1.00323
168.38433	       1.10719
168.48433	       1.21051
168.58433	       1.31322
168.68433	       1.41531
168.78433	       1.51678
168.88433	       1.61766
168.98433	       1.71794
169.08433	       1.81764
169.18433	       1.91679
169.28433	       2.01539
169.38433	       2.11347
169.48433	       2.21103
169.58433	       2.30808
169.68433	       2.40462
169.78433	       2.50067
169.88433	       2.59622
169.98433	       2.69128
170.08433	       2.78588
170.18433	       2.88004
170.28433	       2.97379
170.38433	       3.06714
170.48433	       3.16011
170.58433	       3.25272
170.68433	       3.34497
170.78433	       3.43686
170.88433	       3.52841
170.98433	       3.61961
171.08433	       3.71049
171.18433	       3.80106
171.28433	       3.89133
171.38433	       3.98132
171.48433	       4.07105
171.58433	       4.16052
171.68433	       4.24972
171.78433	       4.33865
171.88433	       4.42731
171.98433	       4.51571
172.08433	       4.60384
172.18433	       4.69172
172.28433	       4.77935
172.38433	       4.86676
172.48433	       4.95393
172.58433	       5.04087
172.68433	       5.12756
172.78433	       5.21399
172.88433	       5.30014
172.98433	       5.38601
173.08433	       5.47157
173.18433	       5.55683
173.28433	       5.64178
173.38433	       5.72641
173.48433	       5.81072
173.58433	       5.89470
173.68433	       5.97834
173.78433	       6.06161
173.88433	       6.14451
173.98433	       6.22703
174.08433	       6.30914
174.18433	       6.39084
174.28433	       6.47209
174.38433	       6.55289
174.48433	       6.63322
174.58433	       6.71304
174.68433	       6.79234
174.78433	       6.87109
174.88433	       6.94926
174.98433	       7.02682
175.08433	       7.10375
175.18433	       7.18003
175.28433	       7.25562
175.38433	       7.33050
175.48433	       7.40465
175.58433	       7.47805
175.68433	       7.55068
175.78433	       7.62254
175.88433	       7.69362
175.98433	       7.76391
176.08433	       7.83339
176.18433	       7.90202
176.28433	       7.96976
176.38433	       8.03658
176.48433	       8.10246
176.58433	       8.16736
176.68433	       8.23126
176.78433	       8.29416
176.88433	       8.35603
176.98433	       8.41685
177.08433	       8.47661
177.18433	       8.53528
177.28433	       8.59284
177.38433	       8.64926
177.48433	       8.70453
177.58433	       8.75862
177.68433	       8.81153
177.78433	       8.86324
177.88433	       8.91374
177.98433	       8.96302
178.08433	       9.01107
178.18433	       9.05786
178.28433	       9.10339
178.38433	       9.14763
178.48433	       9.19056
178.58433	       9.23219
178.68433	       9.27249
178.78433	       9.31146
178.88433	       9.34909
178.98433	       9.38537
179.08433	       9.42029
179.18433	       9.45384
179.28433	       9.48602
179.38433	       9.51682
179.48433	       9.54623
179.58433	       9.57426
179.68433	       9.60089
179.78433	       9.62613
179.88433	       9.64999
179.98433	       9.67245
180.08433	       9.69353
180.18433	       9.71322
180.28433	       9.73154
180.38433	       9.74847
180.48433	       9.76404
180.58433	       9.77824
180.68433	       9.79107
180.78433	       9.80253
180.88433	       9.81264
180.98433	       9.82138
181.08433	       9.82879
181.18433	       9.83486
181.28433	       9.83960
181.38433	       9.84303
181.48433	       9.84516
181.58433	       9.84599
181.68433	       9.84555
181.78433	       9.84385
181.88433	       9.84090
181.98433	       9.83670
182.08433	       9.83129
182.18433	       9.82466
182.28433	       9.81683
182.38433	       9.80781
182.48433	       9.79762
182.58433	       9.78626
182.68433	       9.77375
182.78433	       9.76010
182.88433	       9.74532
182.98433	       9.72943
183.08433	       9.71245
183.18433	       9.69439
183.28433	       9.67528
183.38433	       9.65513
183.48433	       9.63395
183.58433	       9.61178
183.68433	       9.58862
183.78433	       9.56449
183.88433	       9.53940
183.98433	       9.51339
184.08433	       9.48646
184.18433	       9.45863
184.28433	       9.42993
184.38433	       9.40035
184.48433	       9.36990
184.58433	       9.33860
184.68433	       9.30646
184.78433	       9.27348
184.88433	       9.23968
184.98433	       9.20509
185.08433	       9.16973
185.18433	       9.13361
185.28433	       9.09675
185.38433	       9.05918
185.48433	       9.02092
185.58433	       8.98198
185.68433	       8.94238
185.78433	       8.90214
185.88433	       8.86128
185.98433	       8.81980
186.08433	       8.77773
186.18433	       8.73506
186.28433	       8.69183
186.38433	       8.64803
186.48433	       8.60367
186.58433	       8.55878
186.68433	       8.51336
186.78433	       8.46744
186.88433	       8.42104
186.98433	       8.37417
187.08433	       8.32688
187.18433	       8.27916
187.28433	       8.23101
187.38433	       8.18245
187.48433	       8.13348
187.58433	       8.08411
187.68433	       8.03433
187.78433	       7.98416
187.88433	       7.93360
187.98433	       7.88266
188.08433	       7.83134
188.18433	       7.77966
188.28433	       7.72764
188.38433	       7.67529
188.48433	       7.62265
188.58433	       7.56971
188.68433	       7.51651
188.78433	       7.46305
188.88433	       7.40936
188.98433	       7.35544
189.08433	       7.30130
189.18433	       7.24695
189.28433	       7.19239
189.38433	       7.13761
189.48433	       7.08264
189.58433	       7.02747
189.68433	       6.97214
189.78433	       6.91664
189.88433	       6.86100
189.98433	       6.80521
190.08433	       6.74928
190.18433	       6.69322
190.28433	       6.63702
190.38433	       6.58069
190.48433	       6.52424
190.58433	       6.46768
190.68433	       6.41103
190.78433	       6.35430
190.88433	       6.29749
190.98433	       6.24060
191.08433	       6.18364
191.18433	       6.12662
191.28433	       6.06952
191.38433	       6.01236
191.48433	       5.95516
191.58433	       5.89791
191.68433	       5.84062
191.78433	       5.78331
191.88433	       5.72598
191.98433	       5.66861
192.08433	       5.61123
192.18433	       5.55382
192.28433	       5.49640
192.38433	       5.43897
192.48433	       5.38154
192.58433	       5.32412
192.68433	       5.26671
192.78433	       5.20933
192.88433	       5.15197
192.98433	       5.09465
193.08433	       5.03737
193.18433	       4.98014
193.28433	       4.92295
193.38433	       4.86583
193.48433	       4.80876
193.58433	       4.75175
193.68433	       4.69481
193.78433	       4.63794
193.88433	       4.58114
193.98433	       4.52442
194.08433	       4.46779
194.18433	       4.41125
194.28433	       4.35479
194.38433	       4.29844
194.48433	       4.24219
194.58433	       4.18603
194.68433	       4.12998
194.78433	       4.07402
194.88433	       4.01815
194.98433	       3.96239
195.08433	       3.90673
195.18433	       3.85119
195.28433	       3.79578
195.38433	       3.74052
195.48433	       3.68541
195.58433	       3.63044
195.68433	       3.57561
195.78433	       3.52092
195.88433	       3.46637
195.98433	       3.41195
196.08433	       3.35767
196.18433	       3.30352
196.28433	       3.24950
196.38433	       3.19562
196.48433	       3.14190
196.58433	       3.08833
196.68433	       3.03494
196.78433	       2.98174
196.88433	       2.92872
196.98433	       2.87587
197.08433	       2.82321
197.18433	       2.77072
197.28433	       2.71841
197.38433	       2.66627
197.48433	       2.61431
197.58433	       2.56252
197.68433	       2.51091
197.78433	       2.45947
197.88433	       2.40822
197.98433	       2.35714
198.08433	       2.30625
198.18433	       2.25554
198.28433	       2.20502
198.38433	       2.15467
198.48433	       2.10450
198.58433	       2.05451
198.68433	       2.00469
198.78433	       1.95505
198.88433	       1.90557
198.98433	       1.85626
199.08433	       1.80710
199.18433	       1.75811
199.28433	       1.70927
199.38433	       1.66059
199.48433	       1.61205
199.58433	       1.56367
199.68433	       1.51543
199.78433	       1.46734
199.88433	       1.41940
199.98433	       1.37160
200.08433	       1.32396
200.18433	       1.27647
200.28433	       1.22914
200.38433	       1.18196
200.48433	       1.13495
200.58433	       1.08808
200.68433	       1.04137
200.78433	       0.99481
200.88433	       0.94839
200.98433	       0.90212
201.08433	       0.85598
201.18433	       0.80996
201.28433	       0.76408
201.38433	       0.71833
201.48433	       0.67273
201.58433	       0.62729
201.68433	       0.58201
201.78433	       0.53689
201.88433	       0.49195
201.98433	       0.44718
202.08433	       0.40257
202.18433	       0.35814
202.28433	       0.31387
202.38433	       0.26976
202.48433	       0.22580
202.58433	       0.18199
202.68433	       0.13833
202.78433	 9.481697e-002
202.88433	 5.145746e-002
202.98433	 8.252494e-003
203.08433	-3.479591e-002
203.18433	-7.768654e-002
203.28433	      -0.12042
203.38433	      -0.16299
203.48433	      -0.20540
203.58433	      -0.24765
203.68433	      -0.28973
203.78433	      -0.33164
203.88433	      -0.37337
203.98433	      -0.41492
204.08433	      -0.45630
204.18433	      -0.49750
204.28433	      -0.53852
204.38433	      -0.57936
204.48433	      -0.62002
204.58433	      -0.66051
204.68433	      -0.70081
204.78433	      -0.74094
204.88433	      -0.78089
204.98433	      -0.82066
205.08433	      -0.86025
205.18433	      -0.89965
205.28433	      -0.93888
205.38433	      -0.97793
205.48433	      -1.01681
205.58433	      -1.05552
205.68433	      -1.09408
205.78433	      -1.13249
205.88433	      -1.17073
205.98433	      -1.20880
206.08433	      -1.24669
206.18433	      -1.28438
206.28433	      -1.32189
206.38433	      -1.35921
206.48433	      -1.39636
206.58433	      -1.43335
206.68433	      -1.47019
206.78433	      -1.50687
206.88433	      -1.54339
206.98433	      -1.57973
207.08433	      -1.61589
207.18433	      -1.65188
207.28433	      -1.68770
207.38433	      -1.72335
207.48433	      -1.75885
207.58433	      -1.79419
207.68433	      -1.82937
207.78433	      -1.86439
207.88433	      -1.89925
207.98433	      -1.93392
208.08433	      -1.96843
208.18433	      -2.00277
208.28433	      -2.03694
208.38433	      -2.07096
208.48433	      -2.10482
208.58433	      -2.13852
208.68433	      -2.17207
208.78433	      -2.20546
208.88433	      -2.23869
208.98433	      -2.27176
209.08433	      -2.30467
209.18433	      -2.33742
209.28433	      -2.37000
209.38433	      -2.40242
209.48433	      -2.43468
209.58433	      -2.46678
209.68433	      -2.49872
209.78433	      -2.53051
209.88433	      -2.56215
209.98433	      -2.59363
210.08433	      -2.62497
210.18433	      -2.65616
210.28433	      -2.68720
210.38433	      -2.71810
210.48433	      -2.74885
210.58433	      -2.77945
210.68433	      -2.80989
210.78433	      -2.84017
210.88433	      -2.87030
210.98433	      -2.90027
211.08433	      -2.93009
211.18433	      -2.95976
211.28433	      -2.98928
211.38433	      -3.01866
211.48433	      -3.04791
211.58433	      -3.07702
211.68433	      -3.10601
211.78433	      -3.13487
211.88433	      -3.16360
211.98433	      -3.19221
212.08433	      -3.22070
212.18433	      -3.24905
212.28433	      -3.27727
212.38433	      -3.30535
212.48433	      -3.33327
212.58433	      -3.36105
212.68433	      -3.38869
212.78433	      -3.41618
212.88433	      -3.44355
212.98433	      -3.47078
213.08433	      -3.49788
213.18433	      -3.52484
213.28433	      -3.55166
213.38433	      -3.57833
213.48433	      -3.60486
213.58433	      -3.63125
213.68433	      -3.65750
213.78433	      -3.68361
213.88433	      -3.70958
213.98433	      -3.73542
214.08433	      -3.76112
214.18433	      -3.78668
214.28433	      -3.81211
214.38433	      -3.83739
214.48433	      -3.86254
214.58433	      -3.88756
214.68433	      -3.91245
214.78433	      -3.93721
214.88433	      -3.96183
214.98433	      -3.98634
215.08433	      -4.01071
215.18433	      -4.03495
215.28433	      -4.05906
215.38433	      -4.08305
215.48433	      -4.10690
215.58433	      -4.13063
215.68433	      -4.15424
215.78433	      -4.17772
215.88433	      -4.20107
215.98433	      -4.22430
216.08433	      -4.24740
216.18433	      -4.27038
216.28433	      -4.29323
216.38433	      -4.31596
216.48433	      -4.33856
216.58433	      -4.36104
216.68433	      -4.38340
216.78433	      -4.40564
216.88433	      -4.42775
216.98433	      -4.44974
217.08433	      -4.47161
217.18433	      -4.49336
217.28433	      -4.51499
217.38433	      -4.53652
217.48433	      -4.55794
217.58433	      -4.57925
217.68433	      -4.60046
217.78433	      -4.62156
217.88433	      -4.64257
217.98433	      -4.66347
218.08433	      -4.68428
218.18433	      -4.70498
218.28433	      -4.72557
218.38433	      -4.74606
218.48433	      -4.76644
218.58433	      -4.78671
218.68433	      -4.80688
218.78433	      -4.82695
218.88433	      -4.84691
218.98433	      -4.86677
219.08433	      -4.88653
219.18433	      -4.90619
219.28433	      -4.92575
219.38433	      -4.94522
219.48433	      -4.96458
219.58433	      -4.98386
219.68433	      -5.00305
219.78433	      -5.02215
219.88433	      -5.04116
219.98433	      -5.06009
220.08433	      -5.07893
220.18433	      -5.09769
220.28433	      -5.11636
220.38433	      -5.13495
220.48433	      -5.15344
220.58433	      -5.17185
220.68433	      -5.19015
220.78433	      -5.20836
220.88433	      -5.22649
220.98433	      -5.24453
221.08433	      -5.26251
221.18433	      -5.28041
221.28433	      -5.29824
221.38433	      -5.31599
221.48433	      -5.33365
221.58433	      -5.35123
221.68433	      -5.36872
221.78433	      -5.38611
221.88433	      -5.40342
221.98433	      -5.42065
222.08433	      -5.43778
222.18433	      -5.45483
222.28433	      -5.47179
222.38433	      -5.48867
222.48433	      -5.50547
222.58433	      -5.52218
222.68433	      -5.53881
222.78433	      -5.55535
222.88433	      -5.57182
222.98433	      -5.58821
223.08433	      -5.60452
223.18433	      -5.62075
223.28433	      -5.63690
223.38433	      -5.65298
223.48433	      -5.66897
223.58433	      -5.68489
223.68433	      -5.70074
223.78433	      -5.71653
223.88433	      -5.73224
223.98433	      -5.74790
224.08433	      -5.76349
224.18433	      -5.77902
224.28433	      -5.79448
224.38433	      -5.80988
224.48433	      -5.82522
224.58433	      -5.84051
224.68433	      -5.85575
224.78433	      -5.87095
224.88433	      -5.88611
224.98433	      -5.90123
225.08433	      -5.91629
225.18433	      -5.93130
225.28433	      -5.94626
225.38433	      -5.96117
225.48433	      -5.97602
225.58433	      -5.99083
225.68433	      -6.00559
225.78433	      -6.02032
225.88433	      -6.03500
225.98433	      -6.04966
226.08433	      -6.06429
226.18433	      -6.07890
226.28433	      -6.09348
226.38433	      -6.10803
226.48433	      -6.12254
226.58433	      -6.13700
226.68433	      -6.15140
226.78433	      -6.16575
226.88433	      -6.18005
226.98433	      -6.19430
227.08433	      -6.20849
227.18433	      -6.22264
227.28433	      -6.23674
227.38433	      -6.25080
227.48433	      -6.26482
227.58433	      -6.27880
227.68433	      -6.29275
227.78433	      -6.30667
227.88433	      -6.32055
227.98433	      -6.33439
228.08433	      -6.34821
228.18433	      -6.36199
228.28433	      -6.37575
228.38433	      -6.38948
228.48433	      -6.40320
228.58433	      -6.41689
228.68433	      -6.43056
228.78433	      -6.44420
228.88433	      -6.45781
228.98433	      -6.47137
229.08433	      -6.48490
229.18433	      -6.49839
229.28433	      -6.51186
229.38433	      -6.52529
229.48433	      -6.53871
229.58433	      -6.55210
229.68433	      -6.56546
229.78433	      -6.57880
229.88433	      -6.59212
229.98433	      -6.60542
230.08433	      -6.61869
230.18433	      -6.63195
230.28433	      -6.64519
230.38433	      -6.65842
230.48433	      -6.67164
230.58433	      -6.68483
230.68433	      -6.69801
230.78433	      -6.71117
230.88433	      -6.72431
230.98433	      -6.73744
231.08433	      -6.75056
231.18433	      -6.76369
231.28433	      -6.77682
231.38433	      -6.78995
231.48433	      -6.80309
231.58433	      -6.81622
231.68433	      -6.82935
231.78433	      -6.84245
231.88433	      -6.85554
231.98433	      -6.86863
232.08433	      -6.88170
232.18433	      -6.89478
232.28433	      -6.90786
232.38433	      -6.92095
232.48433	      -6.93404
232.58433	      -6.94716
232.68433	      -6.96029
232.78433	      -6.97344
232.88433	      -6.98662
232.98433	      -6.99983
233.08433	      -7.01307
233.18433	      -7.02634
233.28433	      -7.03963
233.38433	      -7.05294
233.48433	      -7.06627
233.58433	      -7.07960
233.68433	      -7.09293
233.78433	      -7.10627
233.88433	      -7.11960
233.98433	      -7.13293
234.08433	      -7.14627
234.18433	      -7.15960
234.28433	      -7.17294
234.38433	      -7.18630
234.48433	      -7.19966
234.58433	      -7.21305
234.68433	      -7.22646
234.78433	      -7.23987
234.88433	      -7.25330
234.98433	      -7.26672
235.08433	      -7.28014
235.18433	      -7.29356
235.28433	      -7.30699
235.38433	      -7.32042
235.48433	      -7.33386
235.58433	      -7.34733
235.68433	      -7.36080
235.78433	      -7.37428
235.88433	      -7.38777
235.98433	      -7.40127
236.08433	      -7.41476
236.18433	      -7.42826
236.28433	      -7.44177
236.38433	      -7.45529
236.48433	      -7.46882
236.58433	      -7.48236
236.68433	      -7.49591
236.78433	      -7.50946
236.88433	      -7.52302
236.98433	      -7.53657
237.08433	      -7.55013
237.18433	      -7.56370
237.28433	      -7.57728
237.38433	      -7.59086
237.48433	      -7.60446
237.58433	      -7.61807
237.68433	      -7.63169
237.78433	      -7.64531
237.88433	      -7.65894
237.98433	      -7.67257
238.08433	      -7.68620
238.18433	      -7.69985
238.28433	      -7.71351
238.38433	      -7.72719
238.48433	      -7.74088
238.58433	      -7.75458
238.68433	      -7.76829
238.78433	      -7.78202
238.88433	      -7.79575
238.98433	      -7.80950
239.08433	      -7.82325
239.18433	      -7.83701
239.28433	      -7.85079
239.38433	      -7.86458
239.48433	      -7.87838
239.58433	      -7.89219
239.68433	      -7.90601
239.78433	      -7.91984
239.88433	      -7.93369
239.98433	      -7.94754
240.08433	      -7.96142
240.18433	      -7.97531
240.28433	      -7.98922
240.38433	      -8.00314
240.48433	      -8.01707
240.58433	      -8.03101
240.68433	      -8.04495
240.78433	      -8.05889
240.88433	      -8.07282
240.98433	      -8.08676
241.08433	      -8.10071
241.18433	      -8.11466
241.28433	      -8.12863
241.38433	      -8.14261
241.48433	      -8.15658
241.58433	      -8.17056
241.68433	      -8.18454
241.78433	      -8.19851
241.88433	      -8.21247
241.98433	      -8.22645
242.08433	      -8.24042
242.18433	      -8.25441
242.28433	      -8.26840
242.38433	      -8.28239
242.48433	      -8.29639
242.58433	      -8.31040
242.68433	      -8.32440
242.78433	      -8.33840
242.88433	      -8.35239
242.98433	      -8.36637
243.08433	      -8.38033
243.18433	      -8.39428
243.28433	      -8.40821
243.38433	      -8.42213
243.48433	      -8.43605
243.58433	      -8.44998
243.68433	      -8.46392
243.78433	      -8.47785
243.88433	      -8.49178
243.98433	      -8.50570
244.08433	      -8.51959
244.18433	      -8.53347
244.28433	      -8.54732
244.38433	      -8.56117
244.48433	      -8.57501
244.58433	      -8.58884
244.68433	      -8.60266
244.78433	      -8.61648
244.88433	      -8.63029
244.98433	      -8.64410
245.08433	      -8.65790
245.18433	      -8.67169
245.28433	      -8.68547
245.38433	      -8.69923
245.48433	      -8.71298
245.58433	      -8.72671
245.68433	      -8.74043
245.78433	      -8.75414
245.88433	      -8.76784
245.98433	      -8.78153
246.08433	      -8.79521
246.18433	      -8.80889
246.28433	      -8.82256
246.38433	      -8.83621
246.48433	      -8.84985
246.58433	      -8.86347
246.68433	      -8.87708
246.78433	      -8.89069
246.88433	      -8.90428
246.98433	      -8.91787
247.08433	      -8.93144
247.18433	      -8.94500
247.28433	      -8.95855
247.38433	      -8.97207
247.48433	      -8.98557
247.58433	      -8.99905
247.68433	      -9.01251
247.78433	      -9.02595
247.88433	      -9.03938
247.98433	      -9.05279
248.08433	      -9.06619
248.18433	      -9.07958
248.28433	      -9.09295
248.38433	      -9.10630
248.48433	      -9.11964
248.58433	      -9.13295
248.68433	      -9.14623
248.78433	      -9.15947
248.88433	      -9.17266
248.98433	      -9.18581
249.08433	      -9.19891
249.18433	      -9.21197
249.28433	      -9.22499
249.38433	      -9.23798
249.48433	      -9.25092
249.58433	      -9.26383
249.68433	      -9.27670
249.78433	      -9.28954
249.88433	      -9.30233
249.98433	      -9.31509
250.08433	      -9.32780
250.18433	      -9.34048
250.28433	      -9.35312
250.38433	      -9.36573
250.48433	      -9.37830
250.58433	      -9.39084
250.68433	      -9.40335
250.78433	      -9.41584
250.88433	      -9.42830
250.98433	      -9.44073
251.08433	      -9.45315
251.18433	      -9.46554
251.28433	      -9.47791
251.38433	      -9.49025
251.48433	      -9.50257
251.58433	      -9.51486
251.68433	      -9.52712
251.78433	      -9.53934
251.88433	      -9.55153
251.98433	      -9.56368
252.08433	      -9.57579
252.18433	      -9.58788
252.28433	      -9.59994
252.38433	      -9.61197
252.48433	      -9.62397
252.58433	      -9.63594
252.68433	      -9.64788
252.78433	      -9.65978
252.88433	      -9.67165
252.98433	      -9.68347
253.08433	      -9.69526
253.18433	      -9.70701
253.28433	      -9.71872
253.38433	      -9.73038
253.48433	      -9.74200
253.58433	      -9.75357
253.68433	      -9.76508
253.78433	      -9.77654
253.88433	      -9.78795
253.98433	      -9.79930
254.08433	      -9.81059
254.18433	      -9.82182
254.28433	      -9.83299
254.38433	      -9.84411
254.48433	      -9.85518
254.58433	      -9.86622
254.68433	      -9.87721
254.78433	      -9.88818
254.88433	      -9.89911
254.98433	      -9.91001
255.08433	      -9.92086
255.18433	      -9.93166
255.28433	      -9.94242
255.38433	      -9.95313
255.48433	      -9.96380
255.58433	      -9.97443
255.68433	      -9.98502
255.78433	      -9.99557
255.88433	     -10.00610
255.98433	     -10.01660
256.08433	     -10.02708
256.18433	     -10.03754
256.28433	     -10.04798
256.38433	     -10.05839
256.48433	     -10.06879
256.58433	     -10.07916
256.68433	     -10.08951
256.78433	     -10.09983
256.88433	     -10.11014
256.98433	     -10.12044
257.08433	     -10.13073
257.18433	     -10.14104
257.28433	     -10.15134
257.38433	     -10.16163
257.48433	     -10.17189
257.58433	     -10.18211
257.68433	     -10.19227
257.78433	     -10.20239
257.88433	     -10.21245
257.98433	     -10.22247
258.08433	     -10.23246
258.18433	     -10.24240
258.28433	     -10.25232
258.38433	     -10.26221
258.48433	     -10.27207
258.58433	     -10.28192
258.68433	     -10.29175
258.78433	     -10.30155
258.88433	     -10.31134
258.98433	     -10.32109
259.08433	     -10.33081
259.18433	     -10.34049
259.28433	     -10.35014
259.38433	     -10.35977
259.48433	     -10.36937
259.58433	     -10.37894
259.68433	     -10.38851
259.78433	     -10.39804
259.88433	     -10.40755
259.98433	     -10.41703
260.08433	     -10.42646
260.18433	     -10.43585
260.28433	     -10.44520
260.38433	     -10.45451
260.48433	     -10.46380
260.58433	     -10.47307
260.68433	     -10.48233
260.78433	     -10.49156
260.88433	     -10.50078
260.98433	     -10.50996
261.08433	     -10.51912
261.18433	     -10.52825
261.28433	     -10.53735
261.38433	     -10.54642
261.48433	     -10.55547
261.58433	     -10.56450
261.68433	     -10.57351
261.78433	     -10.58251
261.88433	     -10.59148
261.98433	     -10.60044
262.08433	     -10.60939
262.18433	     -10.61833
262.28433	     -10.62724
262.38433	     -10.63614
262.48433	     -10.64502
262.58433	     -10.65387
262.68433	     -10.66271
262.78433	     -10.67152
262.88433	     -10.68031
262.98433	     -10.68908
263.08433	     -10.69783
263.18433	     -10.70655
263.28433	     -10.71525
263.38433	     -10.72393
263.48433	     -10.73257
263.58433	     -10.74119
263.68433	     -10.74977
263.78433	     -10.75833
263.88433	     -10.76685
263.98433	     -10.77535
264.08433	     -10.78382
264.18433	     -10.79226
264.28433	     -10.80068
264.38433	     -10.80908
264.48433	     -10.81745
264.58433	     -10.82580
264.68433	     -10.83413
264.78433	     -10.84243
264.88433	     -10.85071
264.98433	     -10.85896
265.08433	     -10.86718
265.18433	     -10.87538
265.28433	     -10.88356
265.38433	     -10.89172
265.48433	     -10.89987
265.58433	     -10.90801
265.68433	     -10.91614
265.78433	     -10.92425
265.88433	     -10.93235
265.98433	     -10.94043
266.08433	     -10.94848
266.18433	     -10.95650
266.28433	     -10.96451
266.38433	     -10.97249
266.48433	     -10.98045
266.58433	     -10.98839
266.68433	     -10.99631
266.78433	     -11.00422
266.88433	     -11.01213
266.98433	     -11.02003
267.08433	     -11.02793
267.18433	     -11.03582
267.28433	     -11.04371
267.38433	     -11.05158
267.48433	     -11.05941
267.58433	     -11.06722
267.68433	     -11.07498
267.78433	     -11.08272
267.88433	     -11.09042
267.98433	     -11.09810
268.08433	     -11.10576
268.18433	     -11.11340
268.28433	     -11.12102
268.38433	     -11.12863
268.48433	     -11.13622
268.58433	     -11.14379
268.68433	     -11.15135
268.78433	     -11.15888
268.88433	     -11.16638
268.98433	     -11.17384
269.08433	     -11.18125
269.18433	     -11.18862
269.28433	     -11.19595
269.38433	     -11.20324
269.48433	     -11.21051
269.58433	     -11.21775
269.68433	     -11.22498
269.78433	     -11.23220
269.88433	     -11.23940
269.98433	     -11.24661
270.08433	     -11.25381
270.18433	     -11.26101
270.28433	     -11.26820
270.38433	     -11.27537
270.48433	     -11.28252
270.58433	     -11.28964
270.68433	     -11.29672
270.78433	     -11.30378
270.88433	     -11.31082
270.98433	     -11.31785
271.08433	     -11.32487
271.18433	     -11.33188
271.28433	     -11.33888
271.38433	     -11.34586
271.48433	     -11.35284
271.58433	     -11.35980
271.68433	     -11.36674
271.78433	     -11.37368
271.88433	     -11.38061
271.98433	     -11.38755
272.08433	     -11.39448
272.18433	     -11.40141
272.28433	     -11.40833
272.38433	     -11.41524
272.48433	     -11.42213
272.58433	     -11.42900
272.68433	     -11.43583
272.78433	     -11.44264
272.88433	     -11.44941
272.98433	     -11.45615
273.08433	     -11.46286
273.18433	     -11.46953
273.28433	     -11.47617
273.38433	     -11.48279
273.48433	     -11.48939
273.58433	     -11.49597
273.68433	     -11.50254
273.78433	     -11.50909
273.88433	     -11.51561
273.98433	     -11.52208
274.08433	     -11.52852
274.18433	     -11.53491
274.28433	     -11.54126
274.38433	     -11.54760
274.48433	     -11.55392
274.58433	     -11.56024
274.68433	     -11.56655
274.78433	     -11.57286
274.88433	     -11.57914
274.98433	     -11.58541
275.08433	     -11.59166
275.18433	     -11.59787
275.28433	     -11.60407
275.38433	     -11.61024
275.48433	     -11.61639
275.58433	     -11.62253
275.68433	     -11.62865
275.78433	     -11.63477
275.88433	     -11.64087
275.98433	     -11.64697
276.08433	     -11.65306
276.18433	     -11.65916
276.28433	     -11.66525
276.38433	     -11.67133
276.48433	     -11.67740
276.58433	     -11.68345
276.68433	     -11.68950
276.78433	     -11.69554
276.88433	     -11.70158
276.98433	     -11.70761
277.08433	     -11.71365
277.18433	     -11.71969
277.28433	     -11.72574
277.38433	     -11.73178
277.48433	     -11.73782
277.58433	     -11.74386
277.68433	     -11.74988
277.78433	     -11.75589
277.88433	     -11.76188
277.98433	     -11.76785
278.08433	     -11.77380
278.18433	     -11.77972
278.28433	     -11.78563
278.38433	     -11.79151
278.48433	     -11.79739
278.58433	     -11.80325
278.68433	     -11.80911
278.78433	     -11.81494
278.88433	     -11.82074
278.98433	     -11.82648
279.08433	     -11.83216
279.18433	     -11.83778
279.28433	     -11.84335
279.38433	     -11.84887
279.48433	     -11.85438
279.58433	     -11.85987
279.68433	     -11.86536
279.78433	     -11.87086
279.88433	     -11.87635
279.98433	     -11.88185
280.08433	     -11.88736
280.18433	     -11.89286
280.28433	     -11.89837
280.38433	     -11.90387
280.48433	     -11.90937
280.58433	     -11.91485
280.68433	     -11.92032
280.78433	     -11.92578
280.88433	     -11.93124
280.98433	     -11.93670
281.08433	     -11.94216
281.18433	     -11.94763
281.28433	     -11.95310
281.38433	     -11.95857
281.48433	     -11.96402
281.58433	     -11.96946
281.68433	     -11.97488
281.78433	     -11.98029
281.88433	     -11.98568
281.98433	     -11.99106
282.08433	     -11.99643
282.18433	     -12.00179
282.28433	     -12.00715
282.38433	     -12.01249
282.48433	     -12.01783
282.58433	     -12.02315
282.68433	     -12.02846
282.78433	     -12.03376
282.88433	     -12.03905
282.98433	     -12.04433
283.08433	     -12.04960
283.18433	     -12.05487
283.28433	     -12.06014
283.38433	     -12.06539
283.48433	     -12.07065
283.58433	     -12.07589
283.68433	     -12.08112
283.78433	     -12.08634
283.88433	     -12.09156
283.98433	     -12.09676
284.08433	     -12.10195
284.18433	     -12.10713
284.28433	     -12.11230
284.38433	     -12.11746
284.48433	     -12.12260
284.58433	     -12.12772
284.68433	     -12.13283
284.78433	     -12.13791
284.88433	     -12.14298
284.98433	     -12.14804
285.08433	     -12.15310
285.18433	     -12.15814
285.28433	     -12.16318
285.38433	     -12.16822
285.48433	     -12.17325
285.58433	     -12.17829
285.68433	     -12.18332
285.78433	     -12.18834
285.88433	     -12.19336
285.98433	     -12.19836
286.08433	     -12.20334
286.18433	     -12.20829
286.28433	     -12.21321
286.38433	     -12.21811
286.48433	     -12.22299
286.58433	     -12.22785
286.68433	     -12.23270
286.78433	     -12.23754
286.88433	     -12.24238
286.98433	     -12.24720
287.08433	     -12.25203
287.18433	     -12.25687
287.28433	     -12.26170
287.38433	     -12.26653
287.48433	     -12.27136
287.58433	     -12.27618
287.68433	     -12.28098
287.78433	     -12.28576
287.88433	     -12.29052
287.98433	     -12.29528
288.08433	     -12.30001
288.18433	     -12.30473
288.28433	     -12.30943
288.38433	     -12.31412
288.48433	     -12.31878
288.58433	     -12.32342
288.68433	     -12.32804
288.78433	     -12.33263
288.88433	     -12.33720
288.98433	     -12.34174
289.08433	     -12.34627
289.18433	     -12.35078
289.28433	     -12.35528
289.38433	     -12.35976
289.48433	     -12.36424
289.58433	     -12.36872
289.68433	     -12.37319
289.78433	     -12.37766
289.88433	     -12.38213
289.98433	     -12.38660
290.08433	     -12.39105
290.18433	     -12.39549
290.28433	     -12.39993
290.38433	     -12.40434
290.48433	     -12.40874
290.58433	     -12.41313
290.68433	     -12.41751
290.78433	     -12.42186
290.88433	     -12.42621
290.98433	     -12.43055
291.08433	     -12.43487
291.18433	     -12.43919
291.28433	     -12.44351
291.38433	     -12.44781
291.48433	     -12.45210
291.58433	     -12.45639
291.68433	     -12.46066
291.78433	     -12.46491
291.88433	     -12.46915
291.98433	     -12.47338
292.08433	     -12.47758
292.18433	     -12.48177
292.28433	     -12.48593
292.38433	     -12.49008
292.48433	     -12.49421
292.58433	     -12.49833
292.68433	     -12.50244
292.78433	     -12.50655
292.88433	     -12.51066
292.98433	     -12.51475
293.08433	     -12.51884
293.18433	     -12.52290
293.28433	     -12.52695
293.38433	     -12.53097
293.48433	     -12.53499
293.58433	     -12.53898
293.68433	     -12.54297
293.78433	     -12.54694
293.88433	     -12.55091
293.98433	     -12.55487
294.08433	     -12.55882
294.18433	     -12.56276
294.28433	     -12.56668
294.38433	     -12.57060
294.48433	     -12.57449
294.58433	     -12.57838
294.68433	     -12.58224
294.78433	     -12.58610
294.88433	     -12.58993
294.98433	     -12.59376
295.08433	     -12.59758
295.18433	     -12.60139
295.28433	     -12.60520
295.38433	     -12.60902
295.48433	     -12.61284
295.58433	     -12.61665
295.68433	     -12.62047
295.78433	     -12.62428
295.88433	     -12.62809
295.98433	     -12.63190
296.08433	     -12.63570
296.18433	     -12.63951
296.28433	     -12.64331
296.38433	     -12.64711
296.48433	     -12.65090
296.58433	     -12.65468
296.68433	     -12.65845
296.78433	     -12.66220
296.88433	     -12.66592
296.98433	     -12.66963
297.08433	     -12.67333
297.18433	     -12.67701
297.28433	     -12.68068
297.38433	     -12.68436
297.48433	     -12.68802
297.58433	     -12.69169
297.68433	     -12.69535
297.78433	     -12.69901
297.88433	     -12.70267
297.98433	     -12.70632
298.08433	     -12.70997
298.18433	     -12.71360
298.28433	     -12.71723
298.38433	     -12.72085
298.48433	     -12.72446
298.58433	     -12.72806
298.68433	     -12.73165
298.78433	     -12.73523
298.88433	     -12.73881
298.98433	     -12.74237
299.08433	     -12.74593
299.18433	     -12.74948
299.28433	     -12.75302
299.38433	     -12.75656
299.48433	     -12.76009
299.58433	     -12.76361
299.68433	     -12.76713
299.78433	     -12.77064
299.88433	     -12.77414
299.98433	     -12.77764
300.08433	     -12.78114
300.18433	     -12.78463
300.28433	     -12.78812

